date, pm25, pm10, o3, no2, so2, co
2021/4/1, 114, 60, 44, 9, 8, 4
2021/4/2, 75, 70, 42, 6, 6, 4
2021/4/3, 84, 78, 39, 11, 6, 3
2021/4/4, 96, 78, 53, 7, 7, 4
2021/4/5, 103, 70, 67, 9, 7, 4
2021/4/6, 129, 76, 52, 9, 9, 4
2021/4/7, 124, 76, 46, 13, 9, 3
2021/4/8, 123, 80, 55, 11, 8, 4
2021/4/9, 126, 71, 54, 8, 11, 4
2021/4/10, 110, 58, 38, 8, 11, 3
2021/4/11, 99, 46, 22, 5, 8, 2
2021/4/12, 71, 36, 23, 5, 10, 2
2021/4/13, 52, 37, 26, 8, 10, 2
2021/4/14, 64, 21, 29, 8, 6, 2
2021/4/15, 43, 36, 38, 8, 6, 3
2021/4/16, 61, 37, 41, 10, 5, 3
2021/4/17, 70, 42, 20, 10, 7, 3
2021/4/18, 83, 48, 39, 7, 8, 3
2021/4/19, 87, 47, 33, 8, 6, 3
2021/4/20, 91, 50, 33, 6, 5, 2
2021/4/21, 101, 43, 45, 8, 8, 4
2021/4/22, 84, 27, 35, 7, 6, 3
2021/4/23, 61, , , , , 
2021/3/1, 149, 61, 43, 2, 7, 4
2021/3/2, 105, 71, 42, 2, 9, 3
2021/3/3, 131, 54, 42, 3, 9, 4
2021/3/4, 90, 56, 40, 9, 9, 3
2021/3/5, 87, 49, 6, 15, 9, 1
2021/3/6, 55, 59, 55, 13, 11, 3
2021/3/7, 143, 44, 32, 8, 8, 3
2021/3/8, 61, 25, 32, 8, 7, 3
2021/3/9, 29, 36, 28, 6, 10, 2
2021/3/10, 33, 28, 7, 9, 7, 1
2021/3/11, 42, 39, 38, 8, 11, 3
2021/3/12, 70, 52, 3, 15, 9, 1
2021/3/13, 57, 43, 39, 8, 8, 3
2021/3/14, 66, 51, 41, 6, 10, 4
2021/3/15, 71, 56, 53, 9, 9, 3
2021/3/16, 87, 54, 49, 7, 8, 5
2021/3/17, 91, 65, 52, 8, 8, 5
2021/3/18, 120, 72, 55, 10, 8, 4
2021/3/19, 125, 60, 40, 10, 10, 3
2021/3/20, 109, 71, 8, 16, 9, 1
2021/3/21, 127, 70, 40, 9, 9, 3
2021/3/22, 110, 46, 32, 6, 7, 3
2021/3/23, 75, 62, 35, 8, 9, 3
2021/3/24, 93, 57, 31, 7, 9, 3
2021/3/25, 84, 74, 53, 10, 9, 4
2021/3/26, 124, 78, 61, 10, 8, 4
2021/3/27, 133, 79, 56, 10, 9, 4
2021/3/28, 150, 74, 54, 13, 10, 3
2021/3/29, 140, 59, 33, 6, 7, 3
2021/3/30, 112, 108, 13, 14, 8, 1
2021/3/31, 155, 71, 40, 9, 8, 3
2021/2/1, 110, 57, 39, 3, 8, 5
2021/2/2, 110, 66, 41, 5, 9, 7
2021/2/3, 136, 61, 50, 5, 9, 7
2021/2/4, 106, 68, 44, 9, 9, 8
2021/2/5, 113, 73, 55, 12, 8, 11
2021/2/6, 128, 71, 54, 10, 8, 10
2021/2/7, 126, 65, 57, 6, 9, 11
2021/2/8, 114, 61, 46, 6, 12, 6
2021/2/9, 112, 68, 45, 12, 10, 7
2021/2/10, 119, 70, 60, 7, 8, 15
2021/2/11, 123, 71, 73, 11, 8, 6
2021/2/12, 125, 54, 44, 9, 8, 1
2021/2/13, 81, 61, 42, 8, 8, 2
2021/2/14, 105, 69, 51, 10, 9, 4
2021/2/15, 123, 61, 44, 4, 6, 4
2021/2/16, 104, 53, 66, 4, 8, 5
2021/2/17, 88, 53, 34, 1, 7, 4
2021/2/18, 102, 61, 40, 4, 8, 3
2021/2/19, 121, 43, 31, 5, 7, 2
2021/2/20, 79, 16, 24, 3, 5, 2
2021/2/21, 22, 26, 27, 2, 8, 2
2021/2/22, 48, 45, 27, 7, 9, 2
2021/2/23, 78, 61, 54, 9, 8, 4
2021/2/24, 109, 64, 35, 12, 8, 3
2021/2/25, 107, 67, 47, 4, 6, 4
2021/2/26, 119, 79, 70, 6, 6, 4
2021/2/27, 140, 59, 56, , 9, 5
2021/2/28, 110, 76, 44, 2, 12, 2
2021/1/4, 51, 26, 20, 3, 8, 3
2021/1/5, 47, 12, 12, 2, 11, 5
2021/1/6, 29, 16, 12, 3, 15, 3
2021/1/7, 37, 24, 12, 3, 10, 3
2021/1/8, 48, 29, 11, 2, 12, 16
2021/1/9, 62, 39, 7, 3, 8, 2
2021/1/10, 67, 45, 21, 4, 11, 4
2021/1/11, 86, 41, 15, 9, 12, 3
2021/1/12, 73, 43, 19, 7, 11, 3
2021/1/13, 84, 39, 15, 5, 11, 5
2021/1/14, 78, 39, 20, 4, 10, 5
2021/1/15, 87, 46, 20, 5, 15, 4
2021/1/16, 102, 55, 3, 11, 11, 9
2021/1/17, 110, 43, 30, 4, 10, 4
2021/1/18, 81, 55, 51, 9, 9, 4
2021/1/19, 101, 55, 30, 7, 3, 5
2021/1/20, 109, 51, 28, 8, 9, 4
2021/1/21, 105, 58, 20, 8, 8, 3
2021/1/22, 110, 60, 79, 3, 10, 2
2021/1/23, 127, 55, 80, 3, 9, 8
2021/1/24, 111, 50, 38, 6, 9, 6
2021/1/25, 88, 60, 44, 8, 5, 8
2021/1/26, 107, 58, 53, 5, 7, 5
2021/1/27, 104, 76, 7, 17, 7, 5
2021/1/28, 154, 74, 36, 7, 10, 7
2021/1/29, 154, , , , , 
2020/10/1, 55, 34, 16, 4, 8, 3
2020/10/2, 64, 22, 15, 2, 11, 3
2020/10/3, 41, 22, 11, 3, 11, 3
2020/10/4, 35, 30, 13, 5, 11, 4
2020/10/5, 32, 41, 18, 6, 10, 3
2020/10/6, 43, 39, 18, 5, 10, 3
2020/10/7, 54, 45, 27, 5, 9, 4
2020/10/8, 58, 32, 24, 4, 10, 3
2020/10/9, 49, 17, 19, 5, 10, 3
2020/10/10, 42, 29, 15, 4, 12, 
2020/10/11, 43, 32, 19, 3, 10, 2
2020/10/12, 51, 30, 17, 3, 12, 3
2020/10/13, 46, 30, 16, 2, 12, 4
2020/10/14, 40, 29, 11, 3, 13, 2
2020/10/15, 40, 55, 26, 6, 11, 3
2020/10/16, 88, 56, 21, 6, 10, 3
2020/10/17, 89, 50, 17, 5, 8, 2
2020/10/18, 77, 38, 11, 6, 8, 2
2020/10/19, 68, 28, 10, 4, 8, 2
2020/10/20, 57, 17, 15, 4, 8, 3
2020/10/21, 41, 16, 13, 3, 20, 3
2020/10/22, 36, 22, 12, 4, 13, 3
2020/10/23, 47, 25, 16, 6, 6, 2
2020/10/24, 43, 34, 19, 6, 8, 3
2020/10/25, 63, , , , , 
2020/10/28, 127, 68, 36, 11, 8, 4
2020/10/29, 133, 66, 42, 11, 10, 5
2020/10/30, 129, 73, 51, 12, 9, 5
2020/10/31, 156, 69, 37, 11, 9, 4
2020/11/1, 154, 75, 38, 11, 10, 4
2020/11/2, 161, 63, 31, 11, 8, 4
2020/11/3, 145, 58, 33, 10, 7, 1
2020/11/4, 135, 46, 24, 7, 9, 
2020/11/5, 112, 19, 13, 2, 15, 
2020/11/6, 52, 29, 14, 4, 15, 1
2020/11/7, 64, 41, 24, 6, 20, 2
2020/11/8, 98, 65, 19, 10, 14, 2
2020/11/9, 153, 63, 45, 14, 13, 3
2020/11/10, 142, 59, 33, 11, 8, 2
2020/11/11, 132, 50, 25, 6, 12, 2
2020/11/12, 110, 22, 12, 5, 12, 2
2020/11/13, 52, 30, 13, 7, 12, 2
2020/11/14, 72, 38, 12, 9, 14, 2
2020/11/15, 87, 18, 11, 5, 12, 2
2020/11/16, 44, 18, 14, 3, 13, 2
2020/11/17, 39, 28, 13, 5, 13, 2
2020/11/18, 66, 35, 15, 6, 13, 2
2020/11/19, 77, 41, 12, 9, 13, 2
2020/11/20, 93, 45, 33, 13, 14, 3
2020/11/21, 92, 52, 5, 12, 13, 3
2020/11/22, 107, 53, 1, 10, 9, 2
2020/11/23, 113, 46, 25, 8, 8, 2
2020/11/24, 96, 58, 23, 7, 8, 2
2020/11/25, 135, 18, 12, 7, 11, 2
2020/11/26, 44, 16, 17, 6, 10, 2
2020/11/27, 32, 12, 20, 3, 12, 2
2020/11/28, 25, 26, 12, 8, 8, 2
2020/11/29, 51, 27, 22, 8, 9, 2
2020/11/30, 48, 47, 21, 11, 14, 2
2020/12/1, 79, 47, 26, 10, 10, 2
2020/12/2, 81, 35, 13, 9, 11, 2
2020/12/3, 68, 20, 9, 10, 13, 3
2020/12/4, 34, 19, 11, 9, 14, 3
2020/12/5, 34, 27, 14, 10, 9, 2
2020/12/6, 54, 13, 12, 3, 9, 2
2020/12/7, 25, 13, 11, 4, 9, 2
2020/12/8, 20, 25, 15, 4, 11, 2
2020/12/9, 52, 37, 25, 6, 12, 2
2020/12/10, 75, 50, 52, 11, 13, 3
2020/12/11, 94, 54, 26, 9, 12, 2
2020/12/12, 121, 62, 1, 14, 13, 3
2020/12/13, 141, 61, 37, 11, 12, 2
2020/12/14, 128, 59, 27, 12, 13, 2
2020/12/15, 120, 46, 21, 6, 7, 1
2020/12/16, 83, 43, 17, 7, 10, 2
2020/12/17, 67, 46, 26, 8, 8, 2
2020/12/18, 88, 56, 26, 7, 7, 3
2020/12/19, 115, 64, 28, 8, 9, 3
2020/12/20, 148, 58, 32, 10, 8, 3
2020/12/21, 126, 55, 30, 7, 9, 3
2020/12/22, 121, 49, 28, 3, 10, 2
2020/12/23, 104, 58, 72, 8, 10, 2
2020/12/24, 128, 63, 11, 7, 9, 2
2020/12/25, 150, 58, 16, 8, 7, 5
2020/12/26, 124, 67, 33, 14, 6, 5
2020/12/27, 131, 70, 44, 9, 6, 3
2020/12/28, 143, 61, 27, 7, 4, 4
2020/12/29, 129, 50, 28, 4, 9, 6
2020/12/30, 106, 36, 19, 5, 8, 6
2020/12/31, 77, 52, 32, 6, 10, 3
2021/1/1, 115, 45, 24, 3, 6, 6
2021/1/2, 93, 52, 13, 3, 10, 6
2021/1/3, 106, 24, 19, 2, 8, 4
2020/7/1, 60, 23, 11, 6, 10, 2
2020/7/2, 43, 22, 12, 6, 9, 2
2020/7/3, 33, 26, 11, 6, 8, 2
2020/7/4, 46, 31, 12, 5, 10, 2
2020/7/5, 52, 33, 10, 5, 10, 2
2020/7/6, 43, 26, 10, 5, 12, 2
2020/7/7, 54, 20, 10, 5, 10, 2
2020/7/8, 37, 20, 10, 6, 10, 2
2020/7/9, 39, 21, 11, 6, 12, 2
2020/7/10, 50, 27, 12, 6, 12, 2
2020/7/11, 43, 18, 14, 6, 11, 2
2020/7/12, 39, 27, 16, 7, 11, 2
2020/7/13, 56, 22, 9, 7, 11, 2
2020/7/14, 45, 20, 10, 5, 11, 2
2020/7/15, 48, 18, 7, 5, 10, 2
2020/7/16, 40, 21, 9, 5, 10, 2
2020/7/17, 45, 24, 9, 6, 9, 2
2020/7/18, 46, 25, 9, 6, 8, 2
2020/7/19, 48, 21, 10, 5, 7, 2
2020/7/20, 46, 17, 11, 6, 9, 2
2020/7/21, 35, 33, 15, 8, 12, 2
2020/7/22, 68, 28, 16, 6, 10, 2
2020/7/23, 59, 19, 12, 6, 12, 2
2020/7/24, 48, 21, 14, 7, 12, 2
2020/7/25, 45, 26, 15, 7, 12, 2
2020/7/26, 55, 25, 13, 7, 11, 2
2020/7/27, 50, 26, 12, 7, 12, 2
2020/7/28, 48, 22, 12, 6, 11, 2
2020/7/29, 47, 19, 12, 6, 12, 2
2020/7/30, 42, 21, 13, 6, 11, 2
2020/7/31, 46, 19, 11, 6, 11, 2
2020/8/1, 47, 18, 13, 6, 9, 2
2020/8/2, 37, 20, 10, 6, 7, 2
2020/8/3, 39, 22, 9, 6, 7, 2
2020/8/4, 34, 20, 10, 8, 7, 2
2020/8/5, 30, 27, 11, 13, 11, 2
2020/8/6, 39, 23, 10, 14, 12, 2
2020/8/7, 40, 22, 10, 15, 11, 2
2020/8/8, 35, 23, 10, 15, 12, 2
2020/8/9, 42, 22, 12, 12, 14, 3
2020/8/10, 37, 24, 12, 12, 7, 2
2020/8/11, 44, 31, 10, 13, 8, 2
2020/8/12, 49, 39, 10, 13, 8, 2
2020/8/13, 55, 37, 11, 12, 8, 2
2020/8/14, 55, 31, 11, 12, 12, 2
2020/8/15, 53, 33, 9, 13, 13, 2
2020/8/16, 54, 25, 9, 12, 12, 2
2020/8/17, 46, 24, 9, 10, 9, 2
2020/8/18, 41, 24, 9, 7, 11, 2
2020/8/19, 40, 29, 8, 6, 10, 2
2020/8/20, 45, 25, 10, 7, 11, 2
2020/8/21, 41, 23, 13, 9, 9, 2
2020/8/22, 41, 22, 10, 10, 11, 2
2020/8/23, 32, 29, 14, 9, 10, 2
2020/8/24, 48, 33, 13, 9, 9, 2
2020/8/25, 48, 32, 11, 9, 9, 2
2020/8/26, 47, 37, 13, 9, 8, 2
2020/8/27, 59, 30, 16, 7, 7, 2
2020/8/28, 49, 27, 19, 7, 10, 2
2020/8/29, 48, 26, 15, 10, 10, 2
2020/8/30, 37, 21, 12, 9, 11, 2
2020/8/31, 33, 21, 10, 12, 12, 3
2020/9/1, 36, 20, 11, 8, 9, 2
2020/9/2, 30, 17, 17, 5, 8, 2
2020/9/3, 33, 29, 17, 1, 10, 2
2020/9/4, 56, 29, 17, 3, 12, 2
2020/9/5, 61, 46, 4, 6, 13, 3
2020/9/6, 86, 15, 12, 2, 12, 2
2020/9/7, 29, 14, 13, 2, 11, 2
2020/9/8, 34, 18, 15, 2, 12, 2
2020/9/9, 41, 14, 11, 2, 11, 2
2020/9/10, 25, 18, 10, 2, 12, 2
2020/9/11, 38, 16, 8, 2, 12, 2
2020/9/12, 30, 20, 6, 4, 11, 2
2020/9/13, 43, 24, 7, 4, 10, 2
2020/9/14, 47, 27, 8, 4, 9, 2
2020/9/15, 44, 22, 9, 4, 9, 2
2020/9/16, 45, 23, 11, 3, 8, 2
2020/9/17, 44, 16, 9, 3, 9, 2
2020/9/18, 27, 19, 7, 2, 12, 2
2020/9/19, 39, 13, 7, 2, 10, 2
2020/9/20, 27, 20, 6, 2, 11, 2
2020/9/21, 36, 25, 10, 3, 11, 2
2020/9/22, 40, 38, 11, 4, 10, 2
2020/9/23, 57, 29, 12, 3, 10, 2
2020/9/24, 52, 26, 14, 3, 9, 1
2020/9/25, 47, 31, 6, 5, 10, 2
2020/9/26, 50, 28, 8, 5, 8, 2
2020/9/27, 57, 27, 10, 2, 10, 3
2020/9/28, 57, 26, 13, 4, 7, 6
2020/9/29, 51, 24, 10, 4, 10, 5
2020/9/30, 45, 34, 10, 5, 10, 4
2020/4/1, 71, 47, 7, 3, 10, 2
2020/4/2, 87, 46, 7, 4, 10, 3
2020/4/3, 88, 46, 7, 4, 10, 3
2020/4/4, 88, 41, 5, 3, 9, 2
2020/4/5, 78, 32, 7, 3, 7, 2
2020/4/6, 58, 21, 5, 3, 9, 2
2020/4/7, 41, 22, 6, 5, 6, 2
2020/4/8, 50, 30, 7, 4, 7, 2
2020/4/9, 60, 18, 5, 2, 7, 2
2020/4/10, 41, 34, 6, 4, 7, 2
2020/4/11, 76, 41, 7, 4, 8, 2
2020/4/12, 80, 46, 7, 6, 9, 2
2020/4/13, 90, 53, 8, 7, 11, 2
2020/4/14, 109, 58, 6, 7, 13, 2
2020/4/15, 130, 42, 8, 6, 5, 2
2020/4/16, 76, 50, 7, 3, 9, 2
2020/4/17, 92, 49, 5, 4, 9, 2
2020/4/18, 92, 36, 6, 2, 9, 2
2020/4/19, 66, 30, 5, 3, 11, 2
2020/4/20, 55, 42, 4, 8, 9, 3
2020/4/21, 65, 36, 5, 2, 9, 2
2020/4/22, 66, 28, 6, 2, 9, 2
2020/4/23, 51, 26, 5, 5, 8, 2
2020/4/24, 53, 34, 4, 5, 8, 2
2020/4/25, 67, , 6, 4, 9, 3
2020/4/26, 64, 57, 4, 5, 9, 2
2020/4/27, 62, 51, 6, 4, 9, 3
2020/4/28, 67, 27, 2, 5, 12, 5
2020/4/29, 51, 40, 5, 6, 13, 5
2020/4/30, 69, 36, 6, 3, 12, 2
2020/5/1, 63, 30, 5, 3, 12, 2
2020/5/2, 51, , , , , 
2020/5/4, 91, 60, 143, 7, 12, 4
2020/5/5, 94, 46, 9, 9, 10, 2
2020/5/6, 74, 57, 26, 11, 13, 3
2020/5/7, 88, 30, 20, 10, 20, 3
2020/5/8, 58, 43, 24, 11, 13, 2
2020/5/9, 65, 54, 25, 14, 15, 5
2020/5/10, 98, 48, 28, 12, 12, 4
2020/5/11, 65, 43, 31, 11, 12, 4
2020/5/12, 56, 33, 22, 9, 11, 3
2020/5/13, 48, 41, 34, 10, 13, 3
2020/5/14, 70, 41, 28, 12, 13, 3
2020/5/15, 56, 37, 28, 11, 11, 2
2020/5/16, 57, 34, 27, 12, 13, 3
2020/5/17, 55, 31, 25, 11, 11, 2
2020/5/18, 47, 51, 23, 9, 9, 2
2020/5/19, 59, 43, 21, 9, 12, 3
2020/5/20, 53, 40, 24, 9, 13, 3
2020/5/21, 41, 32, 28, 10, 12, 2
2020/5/22, 45, 34, 30, 11, 13, 2
2020/5/23, 36, 35, 23, 11, 13, 2
2020/5/24, 46, 32, 28, 11, 11, 2
2020/5/25, 47, 29, 29, 10, 10, 2
2020/5/26, 48, 30, 22, 11, 14, 3
2020/5/27, 51, 32, 24, 10, 11, 3
2020/5/28, 47, 26, 23, 10, 12, 2
2020/5/29, 30, 21, 30, 9, 14, 2
2020/5/30, 30, 25, 19, 5, 13, 2
2020/5/31, 18, 17, 17, 5, 13, 2
2020/6/1, 19, 12, 13, 4, 13, 2
2020/6/2, 18, 10, 14, 4, 12, 2
2020/6/3, 23, 17, 14, 5, 11, 1
2020/6/4, 25, 23, 17, 6, 11, 6
2020/6/5, 39, 26, 15, 6, 11, 4
2020/6/6, 46, 29, 12, 5, 12, 4
2020/6/7, 52, 34, 14, 5, 12, 3
2020/6/8, 57, 39, 14, 6, 11, 3
2020/6/9, 63, 33, 13, 5, 12, 3
2020/6/10, 52, 23, 12, 6, 12, 4
2020/6/11, 40, 24, 13, 5, 10, 2
2020/6/12, 44, 24, 14, 4, 9, 1
2020/6/13, 45, 21, 12, 4, 9, 2
2020/6/14, 34, 24, 12, 4, 11, 2
2020/6/15, 40, 28, 14, 4, 10, 2
2020/6/16, 48, 34, 12, 4, 11, 2
2020/6/17, 55, 33, 12, 4, 11, 2
2020/6/18, 50, 38, 12, 7, 11, 2
2020/6/19, 59, 32, 12, 8, 9, 2
2020/6/20, 53, 28, 12, 8, 11, 2
2020/6/21, 52, 26, 13, 7, 11, 2
2020/6/22, 48, 44, 16, 6, 10, 2
2020/6/23, 64, 37, 17, 7, 12, 2
2020/6/24, 59, 20, 14, 7, 12, 2
2020/6/25, 36, 19, 17, 6, 9, 2
2020/6/26, 45, 19, 15, 8, 9, 2
2020/6/27, 37, 16, 14, 7, 9, 2
2020/6/28, 36, 24, 16, 6, 9, 2
2020/6/29, 47, 23, 13, 6, 8, 2
2020/6/30, 46, 28, 13, 6, 9, 2
2020/1/1, 86, 31, 6, 7, 17, 9
2020/1/2, 46, 45, 8, 9, 13, 16
2020/1/3, 67, 63, 14, 10, 12, 22
2020/1/4, 106, 54, 11, 8, 13, 14
2020/1/5, 100, 36, 9, 5, 12, 4
2020/1/6, 55, 30, 10, 5, 11, 6
2020/1/7, 34, 40, 10, 10, 12, 13
2020/1/8, 69, 58, 12, 12, 12, 19
2020/1/9, 102, 56, 15, 7, 12, 7
2020/1/10, 87, 50, 15, 7, 11, 3
2020/1/11, 64, 54, 14, 11, 11, 11
2020/1/12, 87, 73, 21, 13, 11, 10
2020/1/13, 132, 71, 18, 12, 11, 4
2020/1/14, 131, 59, , 11, 11, 4
2020/1/15, 110, 58, 16, 11, 11, 7
2020/1/16, 102, 52, 14, 11, 10, 12
2020/1/17, 82, 37, 6, 7, 11, 7
2020/1/18, 50, 23, 7, 2, 10, 2
2020/1/19, 23, 37, 14, 4, 10, 3
2020/1/20, 53, 53, 15, 7, 11, 4
2020/1/21, 80, 44, 11, 4, 10, 4
2020/1/22, 70, 49, 12, 5, 10, 4
2020/1/23, 85, 50, 9, 9, 11, 7
2020/1/24, 87, 61, 13, 11, 13, 13
2020/1/25, 93, 65, 6, 16, 11, 14
2020/1/26, 106, 55, 16, 10, 11, 9
2020/1/27, 95, 62, 15, 11, 12, 9
2020/1/28, 123, 63, 17, 14, 13, 17
2020/1/29, 110, 64, 10, 13, 12, 15
2020/1/30, 104, 70, 13, 14, 16, 9
2020/1/31, 123, 62, 16, 6, 14, 3
2020/2/1, 114, 53, , 2, 8, 2
2020/2/2, 87, 49, 14, 3, 6, 2
2020/2/3, 75, 35, 10, 5, 9, 4
2020/2/4, 62, 40, 12, 5, 9, 5
2020/2/5, 67, 59, 12, 8, 10, 6
2020/2/6, 101, 59, 13, 10, 11, 5
2020/2/7, 108, 54, 13, 9, 9, 8
2020/2/8, 93, 55, , 6, 11, 8
2020/2/9, 91, 37, 15, 1, 9, 2
2020/2/10, 68, 45, 14, 3, 12, 3
2020/2/11, 69, 46, 11, 3, 10, 4
2020/2/12, 70, 64, 17, 10, 10, 4
2020/2/13, 88, 71, 16, 14, 11, 5
2020/2/14, 113, 77, 24, 15, 11, 8
2020/2/15, 129, 66, 17, 13, 11, 8
2020/2/16, 101, 68, 18, 14, 12, 11
2020/2/17, 97, 61, 18, 9, 10, 4
2020/2/18, 94, 64, 20, 9, 10, 4
2020/2/19, 97, 62, 17, 4, 11, 2
2020/2/20, 97, 41, 13, 6, 14, 3
2020/2/21, 44, 50, 12, 3, 9, 2
2020/2/22, 69, 47, 13, 3, 9, 3
2020/2/23, 67, 44, 15, 3, 8, 2
2020/2/24, 63, 57, 16, 8, 11, 5
2020/2/25, 85, 55, 14, 6, 12, 3
2020/2/26, 83, 51, 16, 5, 10, 2
2020/2/27, 71, 47, 18, 3, 8, 2
2020/2/28, 71, 57, 19, 5, 9, 3
2020/2/29, 79, 49, 16, 3, 10, 2
2020/3/1, 77, 50, 13, 4, 9, 2
2020/3/2, 87, 75, 7, 16, 10, 8
2020/3/3, 124, 60, 14, 9, 9, 6
2020/3/4, 78, 63, 14, 8, 9, 9
2020/3/5, 104, 49, 13, 7, 8, 4
2020/3/6, 82, 47, 13, 4, 9, 2
2020/3/7, 76, 43, 11, 5, 9, 3
2020/3/8, 75, 52, 16, 6, 8, 5
2020/3/9, 93, 44, 13, 2, 12, 3
2020/3/10, 88, 41, 13, 6, 8, 5
2020/3/11, 62, 47, 13, 8, 9, 13
2020/3/12, 93, 43, 14, 6, 8, 4
2020/3/13, 83, 47, 14, 6, 10, 5
2020/3/14, 72, 46, 15, 3, 8, 2
2020/3/15, 71, 34, 12, 2, 9, 2
2020/3/16, 64, 29, 11, 3, 7, 3
2020/3/17, 71, 31, 11, 4, 10, 4
2020/3/18, 85, 54, 15, 9, 11, 5
2020/3/19, 109, 55, 16, 4, 9, 3
2020/3/20, 107, 52, 18, 8, 10, 2
2020/3/21, 95, 36, 11, 5, 9, 3
2020/3/22, 79, 44, 11, 5, 6, 3
2020/3/23, 85, 52, 15, 6, 8, 13
2020/3/24, 96, 43, 12, 5, 8, 3
2020/3/25, 83, 45, 12, 4, 10, 2
2020/3/26, 95, 37, 6, 2, 9, 2
2020/3/27, 61, 39, 5, 5, 8, 2
2020/3/28, 71, 39, 6, 5, 9, 3
2020/3/29, 70, 36, 6, 2, 9, 2
2020/3/30, 61, 33, 7, 3, 8, 2
2020/3/31, 60, 37, 7, 3, 8, 2
2019/12/3, 64, 49, 12, 7, 14, 3
2019/12/4, 84, 63, 14, 9, 14, 3
2019/12/5, 127, 70, 14, 10, 14, 3
2019/12/6, 145, 49, 13, 8, 14, 4
2019/12/7, 94, 41, 10, 10, 14, 3
2019/12/8, 63, 43, 13, 11, 14, 4
2019/12/9, 68, 45, 11, 10, 14, 4
2019/12/10, 65, 57, 14, 13, 14, 3
2019/12/11, 85, 53, 13, 10, 11, 2
2019/12/12, 85, 52, 11, 10, 9, 3
2019/12/13, 88, 37, 8, 8, 8, 3
2019/12/14, 57, 40, 10, 9, 9, 3
2019/12/15, 68, 38, 9, 9, 9, 2
2019/12/16, 67, 41, 6, 9, 8, 1
2019/12/17, 53, , , , , 
2019/12/23, 83, 47, 9, 9, 29, 2
2019/12/24, 79, 53, 3, 10, 24, 4
2019/12/25, 94, , , , , 
2019/12/28, 85, 57, 5, 10, 19, 3
2019/12/29, 82, , , , , 
2021/1/31, , 66, 25, 9, 10, 5
2020/10/27, , 64, 11, 14, 9, 3
2020/5/3, , 60, 5, 8, 12, 3
2019/12/31, , 48, 9, 8, 22, 11
2019/12/2, , 38, 7, 7, 16, 3
2019/12/22, , 45, 6, 5, 22, 8
2019/12/27, , 49, 8, 5, 8, 1